Time (s),Voltage (V)
0.004999999888241291,0.015472528524696827
0.009999999776482582,0.015472084283828735
0.014999999664723873,0.014854036271572113
0.019999999552965164,0.014235992915928364
0.02500000037252903,0.013621782884001732
0.029999999329447746,0.013007579371333122
0.03500000014901161,0.0123957684263587
0.03999999910593033,0.011784090660512447
0.04500000178813934,0.011218666099011898
0.05000000074505806,0.010652698576450348
0.054999999701976776,0.009936120361089706
0.05999999865889549,0.009217613376677036
0.06499999761581421,0.008053173311054707
0.07000000029802322,0.0068909842520952225
0.07500000298023224,0.006174406502395868
0.07999999821186066,0.0054552555084228516
0.08500000089406967,0.0042908163741230965
0.09000000357627869,0.003130429657176137
0.0949999988079071,0.002592995995655656
0.10000000149011612,0.0020562056452035904
0.10499999672174454,0.0016083444934338331
0.10999999940395355,0.001161544700153172
0.11500000208616257,0.0008480418473482132
0.11999999731779099,0.0005356968031264842
0.125,0.00035655227839015424
0.12999999523162842,0.0001782439649105072
0.13500000536441803,0.00008867170981829986
0.14000000059604645,0
0.14499999582767487,0
0.15000000596046448,0
0.1550000011920929,0
0.1599999964237213,0
0.16500000655651093,0
0.17000000178813934,0
0.17499999701976776,0
0.18000000715255737,0
0.1850000023841858,0
0.1899999976158142,0
0.19499999284744263,0
0.20000000298023224,0.000006432478130591335
0.20499999821186066,0.0004542937676887959
0.20999999344348907,0.0009109353995881975
0.2150000035762787,0.001941016293130815
0.2199999988079071,0.0029767577070742846
0.22499999403953552,0.004365127999335527
0.23000000417232513,0.00575645687058568
0.23499999940395355,0.007323971018195152
0.23999999463558197,0.0088899414986372
0.24500000476837158,0.010367883369326591
0.25,0.011842609383165836
0.2549999952316284,0.013141406700015068
0.25999999046325684,0.014436023309826851
0.26499998569488525,0.015510890632867813
0.27000001072883606,0.016581416130065918
0.2750000059604645,0.017432352527976036
0.2800000011920929,0.01827968657016754
0.2849999964237213,0.018951479345560074
0.28999999165534973,0.019610213115811348
0.29499998688697815,0.019654998555779457
0.30000001192092896,0.01968434825539589
0.3050000071525574,0.019012555480003357
0.3100000023841858,0.01833079196512699
0.3149999976158142,0.01721113733947277
0.3199999928474426,0.01608530804514885
0.32499998807907104,0.014696938917040825
0.33000001311302185,0.013308570720255375
0.33500000834465027,0.01192020159214735
0.3400000035762787,0.010534019209444523
0.3449999988079071,0.009235221892595291
0.3499999940395355,0.007942051626741886
0.35499998927116394,0.006867184769362211
0.36000001430511475,0.005798106547445059
0.36500000953674316,0.004947170149534941
0.3700000047683716,0.004100993741303682
0.375,0.0034292018972337246
0.3799999952316284,0.002762298798188567
0.38499999046325684,0.00226965150795877
0.38999998569488525,0.0017807672265917063
0.39500001072883606,0.0014224782353267074
0.4000000059604645,0.0010667622555047274
0.4050000011920929,0.0007980454247444868
0.4099999964237213,0.0005319659831002355
0.41499999165534973,0.0003528214292600751
0.41999998688697815,0.00017637855489738286
0.42500001192092896,0.0000868062925292179
0.4300000071525574,0
0.4350000023841858,0
0.4399999976158142,0
0.4449999928474426,0
0.44999998807907104,0
0.45500001311302185,0
0.46000000834465027,0
0.4650000035762787,0
0.4699999988079071,0
0.4749999940395355,0
0.47999998927116394,0
0.48500001430511475,0
0.49000000953674316,0
0.4950000047683716,0
0.5,0.000006432478130591335
0.5049999952316284,0.00018557699513621628
0.5099999904632568,0.0003876854607369751
0.5149999856948853,0.0011938357492908835
0.5199999809265137,0.0020150381606072187
0.5249999761581421,0.003224263433367014
0.5299999713897705,0.004443716257810593
0.5350000262260437,0.005921658594161272
0.5400000214576721,0.0073996009305119514
0.5450000166893005,0.008877542801201344
0.550000011920929,0.010350177995860577
0.5550000071525574,0.011693761684000492
0.5600000023841858,0.01302834041416645
0.5649999976158142,0.014147993177175522
0.5699999928474426,0.015258480794727802
0.574999988079071,0.016154203563928604
0.5799999833106995,0.017040599137544632
0.5849999785423279,0.017712391912937164
0.5899999737739563,0.01837090030312538
0.5950000286102295,0.018729189410805702
0.6000000238418579,0.019054671749472618
0.6050000190734863,0.018651597201824188
0.6100000143051147,0.01822497881948948
0.6150000095367432,0.017284469678997993
0.6200000047683716,0.016326013952493668
0.625,0.014982430264353752
0.6299999952316284,0.01363479346036911
0.6349999904632568,0.012201637960970402
0.6399999856948853,0.010772599838674068
0.6449999809265137,0.009429015219211578
0.6499999761581421,0.008095883764326572
0.6549999713897705,0.006976231001317501
0.6600000262260437,0.005867192056030035
0.6650000214576721,0.004971469286829233
0.6700000166893005,0.004086520988494158
0.675000011920929,0.0034147291444242
0.6800000071525574,0.0027494982350617647
0.6850000023841858,0.0022120645735412836
0.6899999976158142,0.0016812888206914067
0.6949999928474426,0.0012782136909663677
0.699999988079071,0.0008818927453830838
0.7049999833106995,0.0006131759728305042
0.7099999785423279,0.0003513098054099828
0.7149999737739563,0.00021695140458177775
0.7200000286102295,0.00008722440543351695
0.7250000238418579,0.00004243827424943447
0.7300000190734863,0
0.7350000143051147,0
0.7400000095367432,0
0.7450000047683716,0
0.75,0
0.7549999952316284,0
0.7599999904632568,0
0.7649999856948853,0
0.7699999809265137,0
0.7749999761581421,0
0.7799999713897705,0.000002508666511857882
0.7850000262260437,0.00004729479405796155
0.7900000214576721,0.0001301933516515419
0.7950000166893005,0.0008467714069411159
0.800000011920929,0.001589079387485981
0.8050000071525574,0.0027535187546163797
0.8100000023841858,0.003930984064936638
0.8149999976158142,0.005319354124367237
0.8199999928474426,0.00671036122366786
0.824999988079071,0.008143517188727856
0.8299999833106995,0.009574003517627716
0.8349999785423279,0.010962373577058315
0.8399999737739563,0.012342638336122036
0.8450000286102295,0.013596650213003159
0.8500000238418579,0.01483972743153572
0.8550000190734863,0.015914592891931534
0.8600000143051147,0.016975630074739456
0.8650000095367432,0.017826568335294724
0.8700000047683716,0.018663514405488968
0.875,0.019290519878268242
0.8799999952316284,0.01986374892294407
0.8849999904632568,0.019639817997813225
0.8899999856948853,0.019378675147891045
0.8949999809265137,0.018572524189949036
0.8999999761581421,0.017746111378073692
0.9049999713897705,0.01662645861506462
0.9100000262260437,0.015498023480176926
0.9150000214576721,0.014244012534618378
0.9200000166893005,0.012984083965420723
0.925000011920929,0.011640500277280807
0.9300000071525574,0.010302899405360222
0.9350000023841858,0.009048888459801674
0.9399999976158142,0.007806969806551933
0.9449999928474426,0.006732102949172258
0.949999988079071,0.0056725130416452885
0.9549999833106995,0.00482157664373517
0.9599999785423279,0.003982990514487028
0.9649999737739563,0.0033111984375864267
0.9700000286102295,0.002651885384693742
0.9750000238418579,0.0021592380944639444
0.9800000190734863,0.0016760464059188962
0.9850000143051147,0.0013177574146538973
0.9900000095367432,0.0009658365743234754
0.9950000047683716,0.0006971198017708957
1,0.00043483549961820245
1.0049999952316284,0.000255691003985703
1.0099999904632568,0.00008629169315099716
1.0149999856948853,0.00004150556560489349
1.0199999809265137,0
1.024999976158142,0
1.0299999713897705,0
1.034999966621399,0
1.0399999618530273,0
1.0449999570846558,0
1.0499999523162842,0
1.0549999475479126,0
1.059999942779541,0
1.065000057220459,0
1.0700000524520874,0
1.0750000476837158,0
1.0800000429153442,0
1.0850000381469727,0
1.090000033378601,0.0000315513061650563
1.0950000286102295,0.00043462644680403173
1.100000023841858,0.0008801559451967478
1.1050000190734863,0.001820664620026946
1.1100000143051147,0.0027897334657609463
1.1150000095367432,0.004088531248271465
1.1200000047683716,0.005398135166615248
1.125,0.006831291131675243
1.1299999952316284,0.008257178589701653
1.1349999904632568,0.009600762277841568
1.1399999856948853,0.0109333461150527
1.1449999809265137,0.012142571620643139
1.149999976158142,0.013333303853869438
1.1549999713897705,0.014318598434329033
1.159999966621399,0.01528896950185299
1.1649999618530273,0.016095120459794998
1.1699999570846558,0.016882454976439476
1.1749999523162842,0.01746467314660549
1.1799999475479126,0.01800135150551796
1.184999942779541,0.01804613694548607
1.190000057220459,0.01803351379930973
1.1950000524520874,0.017406508326530457
1.2000000476837158,0.016740908846259117
1.2050000429153442,0.015666043385863304
1.2100000381469727,0.014567826874554157
1.215000033378601,0.013224243186414242
1.2200000286102295,0.011884583160281181
1.225000023841858,0.01058578584343195
1.2300000190734863,0.009294899180531502
1.2350000143051147,0.008085673674941063
1.2400000095367432,0.006896388251334429
1.2450000047683716,0.005911093670874834
1.25,0.0049418797716498375
1.2549999952316284,0.004135729279369116
1.2599999904632568,0.0033498413395136595
1.2649999856948853,0.0027676215395331383
1.2699999809265137,0.002197655849158764
1.274999976158142,0.0017497946973890066
1.2799999713897705,0.001314283930696547
1.284999966621399,0.0010007809614762664
1.2899999618530273,0.0006955760181881487
1.2949999570846558,0.0004716453840956092
1.2999999523162842,0.000260258064372465
1.3049999475479126,0.00017068581655621529
1.309999942779541,0.00008532682113582268
1.315000057220459,0.00004054069358971901
1.3200000524520874,0
1.3250000476837158,0
1.3300000429153442,0
1.3350000381469727,0
1.340000033378601,0
1.3450000286102295,0
1.350000023841858,0
1.3550000190734863,0
1.3600000143051147,0
1.3650000095367432,0
1.3700000047683716,0.000017624990505282767
1.375,0.00019676949887070805
1.3799999952316284,0.00043361334246583283
1.3849999904632568,0.0011949774343520403
1.3899999856948853,0.0020010473672300577
1.3949999809265137,0.0032102728728204966
1.399999976158142,0.004451017826795578
1.4049999713897705,0.005973746068775654
1.409999966621399,0.007496474776417017
1.4149999618530273,0.00901920348405838
1.4199999570846558,0.010528230108320713
1.4249999523162842,0.011916600167751312
1.4299999475479126,0.013286572881042957
1.434999942779541,0.014495798386633396
1.440000057220459,0.01568186841905117
1.4450000524520874,0.016667162999510765
1.4500000476837158,0.017629139125347137
1.4550000429153442,0.018390504643321037
1.4600000381469727,0.019114302471280098
1.465000033378601,0.019517377018928528
1.4700000286102295,0.01984480582177639
1.475000023841858,0.01953130215406418
1.4800000190734863,0.019155919551849365
1.4850000143051147,0.01826019585132599
1.4900000095367432,0.01732134446501732
1.4950000047683716,0.016022546216845512
1.5,0.01471409946680069
1.5049999952316284,0.013325730338692665
1.5099999904632568,0.011947073973715305
1.5149999856948853,0.010648275725543499
1.5199999809265137,0.00935925543308258
1.524999976158142,0.008150029927492142
1.5299999713897705,0.006965408567339182
1.534999966621399,0.005980113986879587
1.5399999618530273,0.005019583739340305
1.5449999570846558,0.004258220084011555
1.5499999523162842,0.003516796510666609
1.5549999475479126,0.0029345767106860876
1.559999942779541,0.0023674089461565018
1.565000057220459,0.0019195477943867445
1.5700000524520874,0.0014868350699543953
1.5750000476837158,0.0011733322171494365
1.5800000429153442,0.0008699926547706127
1.5850000381469727,0.0006460620206780732
1.590000033378601,0.00043235899647697806
1.5950000286102295,0.0002980006393045187
1.600000023841858,0.00016878823225852102
1.6050000190734863,0.00007921596989035606
1.6100000143051147,0
1.6150000095367432,0
1.6200000047683716,0
1.625,0
1.6299999952316284,0
1.6349999904632568,0
1.6399999856948853,0
1.6449999809265137,0
1.649999976158142,0
1.6549999713897705,0
1.659999966621399,0
1.6649999618530273,0
1.6699999570846558,0
1.6749999523162842,0
1.6799999475479126,0.000059436097217258066
1.684999942779541,0.0005520834820345044
1.690000057220459,0.0011045207502320409
1.6950000524520874,0.0020898154471069574
1.7000000476837158,0.003113383427262306
1.7050000429153442,0.004412181209772825
1.7100000381469727,0.005727477837353945
1.715000033378601,0.00716063380241394
1.7200000286102295,0.008582726120948792
1.725000023841858,0.009926309809088707
1.7300000190734863,0.01125320140272379
1.7350000143051147,0.012462426908314228
1.7400000095367432,0.01364367175847292
1.7450000047683716,0.014628966338932514
1.75,0.015591747127473354
1.7549999952316284,0.01639789715409279
1.7599999904632568,0.017175745218992233
1.7649999856948853,0.017757965251803398
1.7699999809265137,0.01826617866754532
1.774999976158142,0.01826617680490017
1.7799999713897705,0.018180303275585175
1.784999966621399,0.01750851236283779
1.7899999618530273,0.016779150813817978
1.7949999570846558,0.015659498050808907
1.7999999523162842,0.014510899782180786
1.8049999475479126,0.01316731609404087
1.809999942779541,0.011829553171992302
1.815000057220459,0.01053075585514307
1.8200000524520874,0.00924366433173418
1.8250000476837158,0.008034438826143742
1.8300000429153442,0.006854641251266003
1.8350000381469727,0.005869346670806408
1.840000033378601,0.0049077230505645275
1.8450000286102295,0.004101573023945093
1.850000023841858,0.003325172932818532
1.8550000190734863,0.002742953132838011
1.8600000143051147,0.002172697801142931
1.8650000095367432,0.0016800505109131336
1.8700000047683716,0.001211460679769516
1.875,0.0008979578269645572
1.8799999952316284,0.0006025945767760277
1.8849999904632568,0.00042345005203969777
1.8899999856948853,0.0002564628957770765
1.8949999809265137,0.00016689064796082675
1.899999976158142,0.00008342924411408603
1.9049999713897705,0.000038643112930003554
1.909999966621399,0
1.9149999618530273,0
1.9199999570846558,0
1.9249999523162842,0
1.9299999475479126,0
1.934999942779541,0
1.940000057220459,0
1.9450000524520874,0
1.9500000476837158,0
1.9550000429153442,0
1.9600000381469727,0.000018911485312855802
1.965000033378601,0.00015326988068409264
1.9700000286102295,0.0003763321437872946
1.975000023841858,0.0011376963229849935
1.9800000190734863,0.001962742069736123
1.9850000143051147,0.0031719673424959183
1.9900000095367432,0.00441319402307272
1.9950000047683716,0.0058463504537940025
2,0.007292371708899736
2.005000114440918,0.0088151004165411
2.009999990463257,0.010311970487236977
2.015000104904175,0.011655554175376892
2.0199999809265137,0.012973150238394737
2.0250000953674316,0.014137590304017067
2.0299999713897705,0.015275913290679455
2.0350000858306885,0.016261208802461624
2.0399999618530273,0.017213698476552963
2.0450000762939453,0.017975062131881714
2.049999952316284,0.01869027316570282
2.055000066757202,0.01913813315331936
2.059999942779541,0.01947336085140705
2.065000057220459,0.01915985718369484
2.069999933242798,0.01875980570912361
2.075000047683716,0.017864083871245384
2.0799999237060547,0.016914844512939453
2.0850000381469727,0.015660833567380905
2.0899999141693115,0.014379934407770634
2.0950000286102295,0.01294677797704935
2.0999999046325684,0.011533883400261402
2.1050000190734863,0.01023508608341217
2.109999895095825,0.008956647478044033
2.115000009536743,0.007792207412421703
2.119999885559082,0.006655041128396988
2.125,0.005669746547937393
2.130000114440918,0.004718704614788294
2.134999990463257,0.003957340493798256
2.140000104904175,0.0032235076650977135
2.1449999809265137,0.0026412878651171923
2.1500000953674316,0.002079813042655587
2.1549999713897705,0.001631951774470508
2.1600000858306885,0.001204931759275496
2.1649999618530273,0.0008914288482628763
2.1700000762939453,0.0005988636985421181
2.174999952316284,0.0004197192029096186
2.180000066757202,0.00025459748576395214
2.184999942779541,0.00016502522339578718
2.190000057220459,0.00008249653183156624
2.194999933242798,0.00003771040428546257
2.200000047683716,0
2.2049999237060547,0
2.2100000381469727,0
2.2149999141693115,0
2.2200000286102295,0
2.2249999046325684,0
2.2300000190734863,0
2.234999895095825,0
2.240000009536743,0
2.244999885559082,0
2.25,0
2.255000114440918,0
2.259999990463257,0
2.265000104904175,0
2.2699999809265137,0.0000876103513292037
2.2750000953674316,0.000625043932814151
2.2799999713897705,0.0012504737824201584
2.2850000858306885,0.002325340872630477
2.2899999618530273,0.003451764117926359
2.2950000762939453,0.004840134177356958
2.299999952316284,0.0062506962567567825
2.305000066757202,0.007773424498736858
2.309999942779541,0.009281293489038944
2.315000057220459,0.010714449919760227
2.319999933242798,0.012110298499464989
2.325000047683716,0.013319523073732853
2.3299999237060547,0.014491279609501362
2.3350000381469727,0.015476574189960957
2.3399999141693115,0.016424238681793213
2.3450000286102295,0.017185604199767113
2.3499999046325684,0.017909176647663116
2.3550000190734863,0.018446611240506172
2.359999895095825,0.018870189785957336
2.365000009536743,0.01873583160340786
2.369999885559082,0.01848713681101799
2.375,0.01768098585307598
2.380000114440918,0.016798287630081177
2.384999990463257,0.015544275753200054
2.390000104904175,0.014259516261518002
2.3949999809265137,0.012826360762119293
2.4000000953674316,0.011393205262720585
2.4049999713897705,0.009960048831999302
2.4100000858306885,0.008565648458898067
2.4149999618530273,0.007356422953307629
2.4200000762939453,0.0061861141584813595
2.424999952316284,0.0052008191123604774
2.430000066757202,0.004254601430147886
2.434999942779541,0.0034932373091578484
2.440000057220459,0.002771111438050866
2.444999933242798,0.002233677776530385
2.450000047683716,0.001719883643090725
2.4549999237060547,0.001316808513365686
2.4600000381469727,0.0009374693618156016
2.4649999141693115,0.000668752589263022
2.4700000286102295,0.00042386812856420875
2.4749999046325684,0.0002895097422879189
2.4800000190734863,0.00016312763909809291
2.484999895095825,0.00007355538400588557
2.490000009536743,0
2.494999885559082,0
2.5,0
2.505000114440918,0
2.509999990463257,0
2.515000104904175,0
2.5199999809265137,0
2.5250000953674316,0
2.5299999713897705,0
2.5350000858306885,0
2.5399999618530273,0
2.5450000762939453,0
2.549999952316284,0.0000820140921860002
2.555000066757202,0.0005298753967508674
2.559999942779541,0.0010683059226721525
2.565000057220459,0.002008814597502351
2.569999933242798,0.0030154490377753973
2.575000047683716,0.004314246587455273
2.5799999237060547,0.005637938156723976
2.5850000381469727,0.007071094121783972
2.5899999141693115,0.008504250086843967
2.5950000286102295,0.009937405586242676
2.5999999046325684,0.01133711263537407
2.6050000190734863,0.012591124512255192
2.609999895095825,0.013811559416353703
2.615000009536743,0.014886426739394665
2.619999885559082,0.015919160097837448
2.625,0.016770096495747566
2.630000114440918,0.017587199807167053
2.634999990463257,0.018258990719914436
2.640000104904175,0.01881190948188305
2.6449999809265137,0.018856696784496307
2.6500000953674316,0.018782159313559532
2.6549999713897705,0.018199939280748367
2.6600000858306885,0.017532166093587875
2.6649999618530273,0.01650208607316017
2.6700000762939453,0.01542906928807497
2.674999952316284,0.014175058342516422
2.680000066757202,0.012895188294351101
2.684999942779541,0.011506818234920502
2.690000057220459,0.010153055191040039
2.694999933242798,0.0089438296854496
2.700000047683716,0.00776065606623888
2.7049999237060547,0.006685789208859205
2.7100000381469727,0.0056545021943748
2.7149999141693115,0.004803565796464682
2.7200000286102295,0.003987621981650591
2.7249999046325684,0.003315829671919346
2.7300000190734863,0.0026791589334607124
2.734999895095825,0.002186511643230915
2.740000009536743,0.0017203019233420491
2.744999885559082,0.0013620128156617284
2.75,0.0010214131325483322
2.755000114440918,0.0007526964182034135
2.759999990463257,0.0005017333314754069
2.765000104904175,0.0003225887776352465
2.7699999809265137,0.00017017120262607932
2.7750000953674316,0.00012538507871795446
2.7799999713897705,0.00008059894753387198
2.7850000858306885,0.000035812823625747114
2.7899999618530273,0
